# px,py,pz,vx,vy,vz,phi,theta,psi
1.000000000000000000e+00,1.000000000000000000e+00,1.000000000000000000e+00,1.000000000000000000e+00,1.000000000000000000e+00,-1.000000000000000000e+00,1.000000000000000000e+00,1.000000000000000000e+00,1.000000000000000000e+00
1.000999999999999890e+00,1.000999999999999890e+00,9.989999999999999991e-01,9.888888523884350468e-01,1.006003378675369930e+00,-9.940480751181125507e-01,9.899999999999999911e-01,1.003399054050445605e+00,1.000000000000000000e+00
1.001988888852388238e+00,1.002006003378675292e+00,9.980059519248818400e-01,9.777535188471332406e-01,1.011936301660330439e+00,-9.881352451294339589e-01,9.799999999999999822e-01,1.006798108100891209e+00,1.000000000000000000e+00
1.002966642371235340e+00,1.003017939680335591e+00,9.970178166797524222e-01,9.665941280288089521e-01,1.017798522470707789e+00,-9.822604428167637236e-01,9.699999999999999734e-01,1.010197162151336814e+00,1.000000000000000000e+00
1.003933236499264137e+00,1.004035738202806227e+00,9.960355562369356264e-01,9.554108088641236618e-01,1.023589809727926792e+00,-9.764225995476636388e-01,9.599999999999999645e-01,1.013596216201782418e+00,1.000000000000000000e+00
1.004888647308128213e+00,1.005059328012534170e+00,9.950591336373879603e-01,9.442036905601961516e-01,1.029309947164774641e+00,-9.706206454821170171e-01,9.499999999999999556e-01,1.016995270252228023e+00,1.000000000000000000e+00
1.005832850998688466e+00,1.006088637959698939e+00,9.940885129919058150e-01,9.329729025991101432e-01,1.034958733628347893e+00,-9.648535097801680394e-01,9.399999999999999467e-01,1.020394324302673628e+00,1.000000000000000000e+00
1.006765823901287549e+00,1.007123596693327183e+00,9.931236594821256647e-01,9.217185747364180504e-01,1.040535983080184357e+00,-9.591201208095035957e-01,9.299999999999999378e-01,1.023793378353119232e+00,1.000000000000000000e+00
1.007687542476023879e+00,1.008164132676407476e+00,9.921645393613162112e-01,9.104408369996418449e-01,1.046041524593580352e+00,-9.534194063529393137e-01,9.199999999999999289e-01,1.027192432403564837e+00,1.000000000000000000e+00
1.008597983313023416e+00,1.009210174201001120e+00,9.912111199549632490e-01,8.991398196867709247e-01,1.051475202348096660e+00,-9.477502938157723600e-01,9.099999999999999201e-01,1.030591486454010441e+00,1.000000000000000000e+00
1.009497123132710117e+00,1.010261649403349171e+00,9.902633696611474745e-01,8.878156533647564297e-01,1.056836875621254723e+00,-9.421117104329626013e-01,8.999999999999999112e-01,1.033990540504456046e+00,1.000000000000000000e+00
1.010384938786074827e+00,1.011318486278970363e+00,9.893212579507144611e-01,8.764684688680030034e-01,1.062126418777427084e+00,-9.365025834761047108e-01,8.899999999999999023e-01,1.037389594554901651e+00,1.000000000000000000e+00
1.011261407254942846e+00,1.012380612697747706e+00,9.883847553672383546e-01,8.650983972968571134e-01,1.067343721253924738e+00,-9.309218404601532493e-01,8.799999999999998934e-01,1.040788648605347255e+00,1.000000000000000000e+00
1.012126505652239716e+00,1.013447956419001539e+00,9.874538335267781797e-01,8.537055700160922633e-01,1.072488687544286279e+00,-9.253684093498630858e-01,8.699999999999998845e-01,1.044187702655792860e+00,1.000000000000000000e+00
1.012980211222255900e+00,1.014520445106545932e+00,9.865284651174283104e-01,8.422901186533914286e-01,1.077561237178771947e+00,-9.198412187659074091e-01,8.599999999999998757e-01,1.047586756706238464e+00,1.000000000000000000e+00
1.013822501340909232e+00,1.015598006343724657e+00,9.856086238986624393e-01,8.308521750978262732e-01,1.082561304702070792e+00,-9.143391981906356936e-01,8.499999999999998668e-01,1.050985810756684069e+00,1.000000000000000000e+00
1.014653353516007162e+00,1.016680567648426736e+00,9.846942847004718224e-01,8.193918714983331464e-01,1.087488839648222738e+00,-9.088612781734338730e-01,8.399999999999998579e-01,1.054384864807129674e+00,1.000000000000000000e+00
1.015472745387505427e+00,1.017768056488074890e+00,9.837854234222983552e-01,8.079093402621865261e-01,1.092343806512763971e+00,-9.034063905356503055e-01,8.299999999999998490e-01,1.057783918857575278e+00,1.000000000000000000e+00
1.016280654727767629e+00,1.018860400294587576e+00,9.828820170317627003e-01,7.964047140534691316e-01,1.097126184722102327e+00,-8.979734685750487833e-01,8.199999999999998401e-01,1.061182972908020883e+00,1.000000000000000000e+00
1.017077059441821030e+00,1.019957526479309706e+00,9.819840435631876918e-01,7.848781257915393716e-01,1.101835968600128224e+00,-8.925614472697521729e-01,8.099999999999998312e-01,1.064582026958466487e+00,1.000000000000000000e+00
1.017861937567612562e+00,1.021059362447909846e+00,9.810914821159179011e-01,7.733297086494952399e-01,1.106473167332070684e+00,-8.871692634816392697e-01,7.999999999999998224e-01,1.067981081008912092e+00,1.000000000000000000e+00
1.018635267276261969e+00,1.022165835615241880e+00,9.802043128524362547e-01,7.617595960526361010e-01,1.111037804925605110e+00,-8.817958561591580091e-01,7.899999999999998135e-01,1.071380135059357697e+00,1.000000000000000000e+00
1.019397026872314704e+00,1.023276873420167377e+00,9.793225169962771481e-01,7.501679216769210345e-01,1.115529920169222144e+00,-8.764401665395179508e-01,7.799999999999998046e-01,1.074779189109803301e+00,1.000000000000000000e+00
1.020147194793991519e+00,1.024392403340336655e+00,9.784460768297376099e-01,7.385548194474241823e-01,1.119949566587865819e+00,-8.711011383502251793e-01,7.699999999999997957e-01,1.078178243160248906e+00,1.000000000000000000e+00
1.020885749613438920e+00,1.025512352906924551e+00,9.775749756913874045e-01,7.269204235367878741e-01,1.124296812395852330e+00,-8.657777180099228698e-01,7.599999999999997868e-01,1.081577297210694510e+00,1.000000000000000000e+00
1.021612670036975645e+00,1.026636649719320449e+00,9.767091979733775187e-01,7.152648683636719795e-01,1.128571740447077421e+00,-8.604688548285015504e-01,7.499999999999997780e-01,1.084976351261140115e+00,1.000000000000000000e+00
1.022327934905339353e+00,1.027765221459767453e+00,9.758487291185490298e-01,7.035882885912012608e-01,1.132774448182525040e+00,-8.551735012064417552e-01,7.399999999999997691e-01,1.088375405311585720e+00,1.000000000000000000e+00
1.023031523193930648e+00,1.028897995907950058e+00,9.749935556173425777e-01,6.918908191254093953e-01,1.136905047575086147e+00,-8.498906128333536536e-01,7.299999999999997602e-01,1.091774459362031324e+00,1.000000000000000000e+00
1.023723414013055999e+00,1.030034900955525190e+00,9.741436650045092183e-01,6.801725951136802228e-01,1.140963665071701216e+00,-8.446191488856766849e-01,7.199999999999997513e-01,1.095173513412476929e+00,1.000000000000000000e+00
1.024403586608169769e+00,1.031175864620596849e+00,9.732990458556235458e-01,6.684337519431865493e-01,1.144950441532836649e+00,-8.393580722235043368e-01,7.099999999999997424e-01,1.098572567462922533e+00,1.000000000000000000e+00
1.025072020360112912e+00,1.032320815062129693e+00,9.724596877834000841e-01,6.566744252393256209e-01,1.148865532169310200e+00,-8.341063495864973198e-01,6.999999999999997335e-01,1.101971621513368138e+00,1.000000000000000000e+00
1.025728694785352335e+00,1.033469680594299112e+00,9.716255814338136121e-01,6.448947508641525994e-01,1.152709106476474510e+00,-8.288629517888501663e-01,6.899999999999997247e-01,1.105370675563813743e+00,1.000000000000000000e+00
1.026373589536216491e+00,1.034622389700775580e+00,9.707967184820247564e-01,6.330948649148104845e-01,1.156481348165776746e+00,-8.236268539132755029e-01,6.799999999999997158e-01,1.108769729614259347e+00,1.000000000000000000e+00
1.027006684401131409e+00,1.035778871048941285e+00,9.699730916281115167e-01,6.212749037219579273e-01,1.160182455093704323e+00,-8.183970355039708044e-01,6.699999999999997069e-01,1.112168783664704952e+00,1.000000000000000000e+00
1.027627959304853400e+00,1.036939053504035035e+00,9.691546945926075018e-01,6.094350038481939347e-01,1.163812639188133602e+00,-8.131724807585326564e-01,6.599999999999996980e-01,1.115567837715150556e+00,1.000000000000000000e+00
1.028237394308701536e+00,1.038102866143223224e+00,9.683415221118489846e-01,5.975753020864803533e-01,1.167372126372095309e+00,-8.079521787187839976e-01,6.499999999999996891e-01,1.118966891765596161e+00,1.000000000000000000e+00
1.028834969610787908e+00,1.039270238269595303e+00,9.675335699331302219e-01,5.856959354585612454e-01,1.170861156484972687e+00,-8.027351234604792607e-01,6.399999999999996803e-01,1.122365945816041766e+00,1.000000000000000000e+00
1.029420665546246560e+00,1.040441099426080207e+00,9.667308348096697035e-01,5.737970412133798215e-01,1.174279983201148347e+00,-7.975203142818526603e-01,6.299999999999996714e-01,1.125764999866487370e+00,1.000000000000000000e+00
1.029994462587459969e+00,1.041615379409281283e+00,9.659333144953878847e-01,5.618787568254925979e-01,1.177628873946114041e+00,-7.923067558909769881e-01,6.199999999999996625e-01,1.129164053916932975e+00,1.000000000000000000e+00
1.030556341344285531e+00,1.042793008283227296e+00,9.651410077394969589e-01,5.499412199934814449e-01,1.180908109810063111e+00,-7.870934585918967219e-01,6.099999999999996536e-01,1.132563107967378579e+00,1.000000000000000000e+00
1.031106282564278942e+00,1.043973916393037271e+00,9.643539142809051112e-01,5.379845686383623038e-01,1.184117985458981392e+00,-7.818794384695036959e-01,5.999999999999996447e-01,1.135962162017824184e+00,1.000000000000000000e+00
1.031644267132917347e+00,1.045158034378496303e+00,9.635720348424355874e-01,5.260089409019919060e-01,1.187258809043252983e+00,-7.766637175731208043e-01,5.899999999999996358e-01,1.139361216068269789e+00,1.000000000000000000e+00
1.032170276073819393e+00,1.046345293187539660e+00,9.627953711248624646e-01,5.140144751454716054e-01,1.190330902103801325e+00,-7.714453240987602101e-01,5.799999999999996270e-01,1.142760270118715393e+00,1.000000000000000000e+00
1.032684290548964823e+00,1.047535624089643402e+00,9.620239258007636796e-01,5.020013099475489904e-01,1.193334599475782687e+00,-7.662232925700240838e-01,5.699999999999996181e-01,1.146159324169160998e+00,1.000000000000000000e+00
1.033186291858912309e+00,1.048728958689119084e+00,9.612577025081936455e-01,4.899695841030167198e-01,1.196270249189850698e+00,-7.609966640176144548e-01,5.599999999999996092e-01,1.149558378219606602e+00,1.000000000000000000e+00
1.033676261443015276e+00,1.049925228938308974e+00,9.604967058441760130e-01,4.779194366211089728e-01,1.199138212371012813e+00,-7.557644861574193129e-01,5.499999999999996003e-01,1.152957432270052207e+00,1.000000000000000000e+00
1.034154180879636398e+00,1.051124367150680028e+00,9.597409413580185733e-01,4.658510067238952890e-01,1.201938863135097346e+00,-7.505258135671436515e-01,5.399999999999995914e-01,1.156356486320497812e+00,1.000000000000000000e+00
1.034620031886360314e+00,1.052326306013815049e+00,9.589904155444514133e-01,4.537644338446721326e-01,1.204672588482851081e+00,-7.452797078614529225e-01,5.299999999999995826e-01,1.159755540370943416e+00,1.000000000000000000e+00
1.035073796320205020e+00,1.053530978602297941e+00,9.582451358365899896e-01,4.416598576263520703e-01,1.207339788191689856e+00,-7.400252378655972629e-01,5.199999999999995737e-01,1.163154594421389021e+00,1.000000000000000000e+00
1.035515456177831473e+00,1.054738318390489704e+00,9.575051105987243405e-01,4.295374179198501730e-01,1.209940874705121239e+00,-7.347614797874848502e-01,5.099999999999995648e-01,1.166553648471834626e+00,1.000000000000000000e+00
1.035944993595751429e+00,1.055948259265194755e+00,9.567703491189368803e-01,4.173972547824683632e-01,1.212476273019862605e+00,-7.294875173881741892e-01,4.999999999999995559e-01,1.169952702522280230e+00,1.000000000000000000e+00
1.036362390850533943e+00,1.057160735538214658e+00,9.560408616015486638e-01,4.052395084762772659e-01,1.214946420570674590e+00,-7.242024421507535781e-01,4.899999999999995470e-01,1.173351756572725835e+00,1.000000000000000000e+00
1.036767630359010317e+00,1.058375681958785286e+00,9.553166591593978962e-01,3.930643194664956153e-01,1.217351767112934358e+00,-7.189053534475774443e-01,4.799999999999995381e-01,1.176750810623171439e+00,1.000000000000000000e+00
1.037160694678476824e+00,1.059593033725898303e+00,9.545977538059503553e-01,3.808718284198674975e-01,1.219692774602970209e+00,-7.135953587058299075e-01,4.699999999999995293e-01,1.180149864673617044e+00,1.000000000000000000e+00
1.037541566506896773e+00,1.060812726500501180e+00,9.538841584472445012e-01,3.686621762030369842e-01,1.221969917076181078e+00,-7.082715735713847049e-01,4.599999999999995204e-01,1.183548918724062649e+00,1.000000000000000000e+00
1.037910228683099900e+00,1.062034696417577306e+00,9.531758868736731616e-01,3.564355038809207676e-01,1.224183680522964002e+00,-7.029331220709329475e-01,4.499999999999995115e-01,1.186947972774508253e+00,1.000000000000000000e+00
1.038266664186980881e+00,1.063258880098100212e+00,9.524729537516022360e-01,3.441919527150782421e-01,1.226334562762474878e+00,-6.975791367723486180e-01,4.399999999999995026e-01,1.190347026824953858e+00,1.000000000000000000e+00
1.038610856139696059e+00,1.064485214660862766e+00,9.517753746148298610e-01,3.319316641620795871e-01,1.228423073314245162e+00,-6.922087589432635024e-01,4.299999999999994937e-01,1.193746080875399462e+00,1.000000000000000000e+00
1.038942787803858181e+00,1.065713637734176933e+00,9.510831658558865920e-01,3.196547798718712419e-01,1.230449733267680257e+00,-6.868211387078224650e-01,4.199999999999994849e-01,1.197145134925845067e+00,1.000000000000000000e+00
1.039262442583730017e+00,1.066944087467444513e+00,9.503963447171788204e-01,3.073614416861394916e-01,1.232415075149464689e+00,-6.814154352015910909e-01,4.099999999999994760e-01,1.200544188976290672e+00,1.000000000000000000e+00
1.039569804025416211e+00,1.068176502542593997e+00,9.497149292819772048e-01,2.950517916366716675e-01,1.234319642788899385e+00,-6.759908167245876065e-01,3.999999999999994671e-01,1.203943243026736276e+00,1.000000000000000000e+00
1.039864855817052902e+00,1.069410822185382859e+00,9.490389384652526683e-01,2.827259719437151264e-01,1.236163991181196575e+00,-6.705464608924120995e-01,3.899999999999994582e-01,1.207342297077181881e+00,1.000000000000000000e+00
1.040147581788996689e+00,1.070646986176563953e+00,9.483683920043602944e-01,2.703841250143341757e-01,1.237948686348759653e+00,-6.650815547854447285e-01,3.799999999999994493e-01,1.210741351127627485e+00,1.000000000000000000e+00
1.040417965914010923e+00,1.071884934862912697e+00,9.477033104495748983e-01,2.580263934407646120e-01,1.239674305200473503e+00,-6.595952950960870531e-01,3.699999999999994404e-01,1.214140405178073090e+00,1.000000000000000000e+00
1.040675992307451780e+00,1.073124609168113253e+00,9.470437151544788268e-01,2.456529199987664558e-01,1.241341435389032188e+00,-6.540868882740196177e-01,3.599999999999994316e-01,1.217539459228518695e+00,1.000000000000000000e+00
1.040921645227450565e+00,1.074365950603502373e+00,9.463896282662047632e-01,2.332638476459742982e-01,1.242950675166332397e+00,-6.485555506694494765e-01,3.499999999999994227e-01,1.220938513278964299e+00,1.000000000000000000e+00
1.041154909075096446e+00,1.075608901278668705e+00,9.457410727155353136e-01,2.208593195202456505e-01,1.244502633236960198e+00,-6.430005086743225684e-01,3.399999999999994138e-01,1.224337567329409904e+00,1.000000000000000000e+00
1.041375768394616763e+00,1.076853403911905760e+00,9.450980722068610396e-01,2.084394789380071555e-01,1.245997928609797079e+00,-6.374209988614745193e-01,3.299999999999994049e-01,1.227736621379855508e+00,1.000000000000000000e+00
1.041584207873554879e+00,1.078099401840515448e+00,9.444606512079996019e-01,1.960044693925988291e-01,1.247437190447776345e+00,-6.318162681216960008e-01,3.199999999999993960e-01,1.231135675430301113e+00,1.000000000000000000e+00
1.041780212342947376e+00,1.079346839030963290e+00,9.438288349398779031e-01,1.835544345526161358e-01,1.248821057915817212e+00,-6.261855737986872228e-01,3.099999999999993872e-01,1.234534729480746718e+00,1.000000000000000000e+00
1.041963766777499911e+00,1.080595660088879084e+00,9.432026493660792266e-01,1.710895182602501785e-01,1.250150180026965430e+00,-6.205281838218776880e-01,2.999999999999993783e-01,1.237933783531192322e+00,1.000000000000000000e+00
1.042134856295760192e+00,1.081845810268906138e+00,9.425821211822573709e-01,1.586098645296257492e-01,1.251425215486769993e+00,-6.148433768370873409e-01,2.899999999999993694e-01,1.241332837581637927e+00,1.000000000000000000e+00
1.042293466160289839e+00,1.083097235484392851e+00,9.419672778054203333e-01,1.461156175451374939e-01,1.252646832535926347e+00,-6.091304423350056840e-01,2.799999999999993605e-01,1.244731891632083531e+00,1.000000000000000000e+00
1.042439581777834912e+00,1.084349882316928859e+00,9.413581473630853180e-01,1.336069216597840226e-01,1.253815708791214290e+00,-6.033886807774657690e-01,2.699999999999993516e-01,1.248130945682529136e+00,1.000000000000000000e+00
1.042573188699494668e+00,1.085603698025719988e+00,9.407547586823078456e-01,1.210839213935001879e-01,1.254932531084763214e+00,-5.976174037214905255e-01,2.599999999999993427e-01,1.251529999732974741e+00,1.000000000000000000e+00
1.042694272620888096e+00,1.086858630556804650e+00,9.401571412785864057e-01,1.085467614314873097e-01,1.255997995301672443e+00,-5.918159339410895559e-01,2.499999999999993339e-01,1.254929053783420345e+00,1.000000000000000000e+00
1.042802819382319557e+00,1.088114628552106389e+00,9.395653253446453190e-01,9.599558662254155383e-02,1.257012806216020628e+00,-5.859836055467835259e-01,2.399999999999993250e-01,1.258328107833865950e+00,1.000000000000000000e+00
1.042898814968941990e+00,1.089371641358322318e+00,9.389793417390985830e-01,8.343054197738043742e-02,1.257977677325292198e+00,-5.801197641028360552e-01,2.299999999999993161e-01,1.261727161884311554e+00,1.000000000000000000e+00
1.042982245510919448e+00,1.090629619035647702e+00,9.383992219749957009e-01,7.085177266696743303e-02,1.258893330683254819e+00,-5.742237667421717928e-01,2.199999999999993072e-01,1.265126215934757159e+00,1.000000000000000000e+00
1.043053097283586306e+00,1.091888512366330888e+00,9.378249982082534908e-01,5.825942402083470611e-02,1.259760496731318513e+00,-5.682949822789593597e-01,2.099999999999992983e-01,1.268525269985202764e+00,1.000000000000000000e+00
1.043111356707607129e+00,1.093148272863062154e+00,9.372567032259745412e-01,4.565364152540405535e-02,1.260579914128407752e+00,-5.623327913188402860e-01,1.999999999999992895e-01,1.271924324035648368e+00,1.000000000000000000e+00
1.043157010349132552e+00,1.094408852777190466e+00,9.366943704346557542e-01,3.303457082230603498e-02,1.261352329579380038e+00,-5.563365863667831812e-01,1.899999999999992806e-01,1.275323378086093973e+00,1.000000000000000000e+00
1.043190044919954929e+00,1.095670205106769934e+00,9.361380338482889751e-01,2.040235770669725918e-02,1.262078497662023402e+00,-5.503057719325450403e-01,1.799999999999992717e-01,1.278722432136539577e+00,1.000000000000000000e+00
1.043210447277661546e+00,1.096932283604431957e+00,9.355877280763564841e-01,7.757148125575966460e-03,1.262759180652663904e+00,-5.442397646337197026e-01,1.699999999999992628e-01,1.282121486186985182e+00,1.000000000000000000e+00
1.043218204425787166e+00,1.098195042785084619e+00,9.350434883117227924e-01,-4.900911823904199188e-03,1.263395148350417996e+00,-5.381379932963562540e-01,1.599999999999992539e-01,1.285520540237430787e+00,1.000000000000000000e+00
1.043213303513963242e+00,1.099458437933435118e+00,9.345053503184264088e-01,-1.757167589612212630e-02,1.263987177900123049e+00,-5.319998990531286109e-01,1.499999999999992450e-01,1.288919594287876391e+00,1.000000000000000000e+00
1.043195731838067131e+00,1.100722425111335223e+00,9.339733504193732383e-01,-3.025499769867889127e-02,1.264536053613976918e+00,-5.258249354390394092e-01,1.399999999999992362e-01,1.292318648338321996e+00,1.000000000000000000e+00
