# px,py,pz,vx,vy,vz,phi,theta,psi
1.000000000000000000e+00,1.000000000000000000e+00,1.000000000000000000e+00,1.000000000000000000e+00,1.000000000000000000e+00,-1.000000000000000000e+00,1.000000000000000000e+00,1.000000000000000000e+00,1.000000000000000000e+00
1.000999999999999890e+00,1.000999999999999890e+00,9.989999999999999991e-01,9.848484350751386396e-01,1.008186425466413461e+00,-9.954497933428808620e-01,9.899999999999999911e-01,1.003399054050445605e+00,1.000000000000000000e+00
1.001984848435075071e+00,1.002008186425466407e+00,9.980045502066571261e-01,9.696638893369998735e-01,1.016276774991359710e+00,-9.909528979037737217e-01,9.799999999999999822e-01,1.006798108100891209e+00,1.000000000000000000e+00
1.002954512324412129e+00,1.003024463200457683e+00,9.970135973087533854e-01,9.544465382211031468e-01,1.024270712460056076e+00,-9.865078583864961281e-01,9.699999999999999734e-01,1.010197162151336814e+00,1.000000000000000000e+00
1.003908958862633316e+00,1.004048733912917823e+00,9.960270894503668870e-01,9.391965575419868317e-01,1.032167922356263645e+00,-9.821132175649959217e-01,9.599999999999999645e-01,1.013596216201782418e+00,1.000000000000000000e+00
1.004848155420175360e+00,1.005080901835273988e+00,9.950449762328018588e-01,9.239141234911766309e-01,1.039968109770146976e+00,-9.777675165665231649e-01,9.499999999999999556e-01,1.016995270252228023e+00,1.000000000000000000e+00
1.005772069543666491e+00,1.006120869945044127e+00,9.940672087162353288e-01,9.085994126351503164e-01,1.047671000402292218e+00,-9.734692951547745388e-01,9.399999999999999467e-01,1.020394324302673628e+00,1.000000000000000000e+00
1.006680668956301705e+00,1.007168540945446500e+00,9.930937394210805902e-01,8.932526019132974726e-01,1.055276340563887416e+00,-9.692170920129593581e-01,9.299999999999999378e-01,1.023793378353119232e+00,1.000000000000000000e+00
1.007573921558214902e+00,1.008223817286010293e+00,9.921245223290676707e-01,8.778738686358754650e-01,1.062783897173063652e+00,-9.650094450267353574e-01,9.199999999999999289e-01,1.027192432403564837e+00,1.000000000000000000e+00
1.008451795426850817e+00,1.009286601183183363e+00,9.911595128840409163e-01,8.624633904819605235e-01,1.070193457747403931e+00,-9.608448915669621782e-01,9.099999999999999201e-01,1.030591486454010441e+00,1.000000000000000000e+00
1.009314258817332721e+00,1.010356794640930866e+00,9.901986679924739132e-01,8.470213454973952727e-01,1.077504830392619350e+00,-9.567219687722215982e-01,8.999999999999999112e-01,1.033990540504456046e+00,1.000000000000000000e+00
1.010161280162830133e+00,1.011434299471323461e+00,9.892419460237017459e-01,8.315479120927314893e-01,1.084717843787399882e+00,-9.526392138310516566e-01,8.899999999999999023e-01,1.037389594554901651e+00,1.000000000000000000e+00
1.010992828074922967e+00,1.012519017315110847e+00,9.882893068098707046e-01,8.160432690411688617e-01,1.091832347164442218e+00,-9.485951642638451586e-01,8.799999999999998934e-01,1.040788648605347255e+00,1.000000000000000000e+00
1.011808871343964134e+00,1.013610849662275326e+00,9.873407116456068833e-01,8.005075954764895307e-01,1.098848210287662441e+00,-9.445883582043586024e-01,8.699999999999998845e-01,1.044187702655792860e+00,1.000000000000000000e+00
1.012609378939440585e+00,1.014709697872562932e+00,9.863961232874025598e-01,7.849410708909884127e-01,1.105765323425597524e+00,-9.406173346807827906e-01,8.599999999999998757e-01,1.047586756706238464e+00,1.000000000000000000e+00
1.013394320010331473e+00,1.015815463195988588e+00,9.854555059527217997e-01,7.693438751333995240e-01,1.112583597321005202e+00,-9.366806338963212797e-01,8.499999999999998668e-01,1.050985810756684069e+00,1.000000000000000000e+00
1.014163663885464972e+00,1.016928046793309504e+00,9.845188253188255079e-01,7.537161884068179774e-01,1.119302963156666886e+00,-9.327767975092279285e-01,8.399999999999998579e-01,1.054384864807129674e+00,1.000000000000000000e+00
1.014917380073871778e+00,1.018047349756466158e+00,9.835860485213162585e-01,7.380581912666179800e-01,1.125923372517404930e+00,-9.289043689122503666e-01,8.299999999999998490e-01,1.057783918857575278e+00,1.000000000000000000e+00
1.015655438265138377e+00,1.019173273128983537e+00,9.826571441524040162e-01,7.223700646183670582e-01,1.132444797348320709e+00,-9.250618935114300889e-01,8.199999999999998401e-01,1.061182972908020883e+00,1.000000000000000000e+00
1.016377808329756771e+00,1.020305717926331956e+00,9.817320822588926355e-01,7.066519897157355068e-01,1.138867229909265033e+00,-9.212479190042074384e-01,8.099999999999998312e-01,1.064582026958466487e+00,1.000000000000000000e+00
1.017084460319472417e+00,1.021444585156241258e+00,9.808108343398884710e-01,6.909041481584026201e-01,1.145190682725550246e+00,-9.174609956567807423e-01,7.999999999999998224e-01,1.067981081008912092e+00,1.000000000000000000e+00
1.017775364467630839e+00,1.022589775838966819e+00,9.798933733442316552e-01,6.751267218899583700e-01,1.151415188534915535e+00,-9.136996765806698617e-01,7.899999999999998135e-01,1.071380135059357697e+00,1.000000000000000000e+00
1.018450491189520690e+00,1.023741191027501829e+00,9.789796736676510402e-01,6.593198931958014208e-01,1.157540800230756783e+00,-9.099625180084334186e-01,7.799999999999998046e-01,1.074779189109803301e+00,1.000000000000000000e+00
1.019109811082716588e+00,1.024898731827732501e+00,9.780697111496425844e-01,6.434838447010330365e-01,1.163567590801634521e+00,-9.062480795684886292e-01,7.699999999999997957e-01,1.078178243160248906e+00,1.000000000000000000e+00
1.019753294927417731e+00,1.026062299418534218e+00,9.771634630700740676e-01,6.276187593683471011e-01,1.169495653267070612e+00,-9.025549245589854497e-01,7.599999999999997868e-01,1.081577297210694510e+00,1.000000000000000000e+00
1.020380913686786073e+00,1.027231795071801290e+00,9.762609081455150273e-01,6.117248204959163660e-01,1.175325100609650342e+00,-8.988816202206836303e-01,7.499999999999997780e-01,1.084976351261140115e+00,1.000000000000000000e+00
1.020992638507282058e+00,1.028407120172410982e+00,9.753620265252943566e-01,5.958022117152744768e-01,1.181056065703442570e+00,-8.952267380087839399e-01,7.399999999999997691e-01,1.088375405311585720e+00,1.000000000000000000e+00
1.021588440718997237e+00,1.029588176238114494e+00,9.744667997872855647e-01,5.798511169891946704e-01,1.186688701238753252e+00,-8.915888538636637106e-01,7.299999999999997602e-01,1.091774459362031324e+00,1.000000000000000000e+00
1.022168291835986453e+00,1.030774864939353330e+00,9.735752109334219195e-01,5.638717206095640311e-01,1.192223179643228326e+00,-8.879665484804677433e-01,7.199999999999997513e-01,1.095173513412476929e+00,1.000000000000000000e+00
1.022732163556596019e+00,1.031967088118996623e+00,9.726872443849414740e-01,5.478642071952544157e-01,1.197659692999322179e+00,-8.843584075775053899e-01,7.099999999999997424e-01,1.098572567462922533e+00,1.000000000000000000e+00
1.023280027763791233e+00,1.033164747811995854e+00,9.718028859773639727e-01,5.318287616899896042e-01,1.202998452958149667e+00,-8.807630221634049628e-01,6.999999999999997335e-01,1.101971621513368138e+00,1.000000000000000000e+00
1.023811856525481234e+00,1.034367746264954091e+00,9.709221229552005283e-01,5.157655693602082314e-01,1.208239690649737463e+00,-8.771789888029770665e-01,6.899999999999997247e-01,1.105370675563813743e+00,1.000000000000000000e+00
1.024327622094841406e+00,1.035575985955603739e+00,9.700449439663975104e-01,4.996748157929235545e-01,1.213383656589695159e+00,-8.736049098817388892e-01,6.799999999999997158e-01,1.108769729614259347e+00,1.000000000000000000e+00
1.024827296910634233e+00,1.036789369612193479e+00,9.691713390565157571e-01,4.835566868935791685e-01,1.218430620582323654e+00,-8.700393938690506035e-01,6.699999999999997069e-01,1.112168783664704952e+00,1.000000000000000000e+00
1.025310853597527716e+00,1.038007800232775724e+00,9.683012996626466640e-01,4.674113688839010572e-01,1.223380871620181720e+00,-8.664810555798168057e-01,6.599999999999996980e-01,1.115567837715150556e+00,1.000000000000000000e+00
1.025778264966411557e+00,1.039231181104395940e+00,9.674348186070668154e-01,4.512390482997462593e-01,1.228234717780129381e+00,-8.629285164347050285e-01,6.499999999999996891e-01,1.118966891765596161e+00,1.000000000000000000e+00
1.026229504014711358e+00,1.040459415822176048e+00,9.665718900906321576e-01,4.350399119889474808e-01,1.232992486115871422e+00,-8.593804047188348116e-01,6.399999999999996803e-01,1.122365945816041766e+00,1.000000000000000000e+00
1.026664543926700368e+00,1.041692408308291906e+00,9.657125096859132674e-01,4.188141471091545442e-01,1.237654522547019909e+00,-8.558353558388894777e-01,6.299999999999996714e-01,1.125764999866487370e+00,1.000000000000000000e+00
1.027083358073809460e+00,1.042930062830838889e+00,9.648566743300743820e-01,4.025619411256720070e-01,1.242221191744700359e+00,-8.522920125786044299e-01,6.199999999999996625e-01,1.129164053916932975e+00,1.000000000000000000e+00
1.027485920014935106e+00,1.044172284022583552e+00,9.640043823174957449e-01,3.862834818092931166e-01,1.246692877013722001e+00,-8.487490253525858952e-01,6.099999999999996536e-01,1.132563107967378579e+00,1.000000000000000000e+00
1.027872203496744463e+00,1.045418976899597174e+00,9.631556332921431540e-01,3.699789572341306010e-01,1.251069980171337859e+00,-8.452050524584135971e-01,5.999999999999996447e-01,1.135962162017824184e+00,1.000000000000000000e+00
1.028242182453978693e+00,1.046670046879768501e+00,9.623104282396847120e-01,3.536485557754436293e-01,1.255352921422617340e+00,-8.416587603269823914e-01,5.899999999999996358e-01,1.139361216068269789e+00,1.000000000000000000e+00
1.028595831009754047e+00,1.047925399801191038e+00,9.614687694793577766e-01,3.372924661074613861e-01,1.259542139232455948e+00,-8.381088237710361266e-01,5.799999999999996270e-01,1.142760270118715393e+00,1.000000000000000000e+00
1.028933123475861411e+00,1.049184941940423554e+00,9.606306606555867766e-01,3.209108772012033151e-01,1.263638090194248553e+00,-8.345539262318505402e-01,5.699999999999996181e-01,1.146159324169160998e+00,1.000000000000000000e+00
1.029254034353062508e+00,1.050448580030617807e+00,9.597961067293548920e-01,3.045039783222956986e-01,1.267641248895250428e+00,-8.309927600240192280e-01,5.599999999999996092e-01,1.149558378219606602e+00,1.000000000000000000e+00
1.029558538331384776e+00,1.051716221279513030e+00,9.589651139693308179e-01,2.880719590287851295e-01,1.271552107778653351e+00,-8.274240265782984993e-01,5.499999999999996003e-01,1.152957432270052207e+00,1.000000000000000000e+00
1.029846610290413578e+00,1.052987773387291659e+00,9.581376899427525018e-01,2.716150091689482626e-01,1.275371177002404766e+00,-8.238464366824680418e-01,5.399999999999995914e-01,1.156356486320497812e+00,1.000000000000000000e+00
1.030118225299582635e+00,1.054263144564294041e+00,9.573138435060700724e-01,2.551333188790985695e-01,1.279098984294796182e+00,-8.202587107201625427e-01,5.299999999999995826e-01,1.159755540370943416e+00,1.000000000000000000e+00
1.030373358618461799e+00,1.055542243548588832e+00,9.564935847953499604e-01,2.386270785813894013e-01,1.282736074806849036e+00,-8.166595789076320777e-01,5.199999999999995737e-01,1.163154594421389021e+00,1.000000000000000000e+00
1.030611985697043265e+00,1.056824979623395722e+00,9.556769252164423190e-01,2.220964789816140816e-01,1.286283010961528195e+00,-8.130477815283878584e-01,5.099999999999995648e-01,1.166553648471834626e+00,1.000000000000000000e+00
1.030834082176024902e+00,1.058111262634357175e+00,9.548638774349139657e-01,2.055417110670025305e-01,1.289740372299811755e+00,-8.094220691656914823e-01,4.999999999999995559e-01,1.169952702522280230e+00,1.000000000000000000e+00
1.031039623887091805e+00,1.059401003006656961e+00,9.540544553657482885e-01,1.889629661040146680e-01,1.293108755323646220e+00,-8.057812029328451642e-01,4.899999999999995470e-01,1.173351756572725835e+00,1.000000000000000000e+00
1.031228586853195850e+00,1.060694111761980585e+00,9.532486741628154459e-01,1.723604356361306267e-01,1.296388773335818589e+00,-8.021239547012413151e-01,4.799999999999995381e-01,1.176750810623171439e+00,1.000000000000000000e+00
1.031400947288831915e+00,1.061990500535316295e+00,9.524465502081141954e-01,1.557343114816377161e-01,1.299581056276776669e+00,-7.984491073261309468e-01,4.699999999999995293e-01,1.180149864673617044e+00,1.000000000000000000e+00
1.031556681600313663e+00,1.063290081591593106e+00,9.516481011007880131e-01,1.390847857314142788e-01,1.302686250558427794e+00,-7.947554548700692667e-01,4.599999999999995204e-01,1.183548918724062649e+00,1.000000000000000000e+00
1.031695766386045099e+00,1.064592767842151622e+00,9.508533456459179467e-01,1.224120507467103269e-01,1.305705018894949943e+00,-7.910418028239986077e-01,4.499999999999995115e-01,1.186947972774508253e+00,1.000000000000000000e+00
1.031818178436791911e+00,1.065898472861046553e+00,9.500623038430939804e-01,1.057162991569250837e-01,1.308638040130646774e+00,-7.873069683259290574e-01,4.399999999999995026e-01,1.190347026824953858e+00,1.000000000000000000e+00
1.031923894735948810e+00,1.067207110901177147e+00,9.492749968747680178e-01,8.899772385738144442e-02,1.311486009064878999e+00,-7.835497803771765968e-01,4.299999999999994937e-01,1.193746080875399462e+00,1.000000000000000000e+00
1.032012892459806208e+00,1.068518596910241980e+00,9.484914470943908160e-01,7.225651800709734229e-02,1.314249636274108735e+00,-7.797690800561206670e-01,4.199999999999994849e-01,1.197145134925845067e+00,1.000000000000000000e+00
1.032085148977813338e+00,1.069832846546516114e+00,9.477116780143346464e-01,5.549287502655406851e-02,1.316929647931087688e+00,-7.759637207294414196e-01,4.099999999999994760e-01,1.200544188976290672e+00,1.000000000000000000e+00
1.032140641852839824e+00,1.071149776194447290e+00,9.469357142936052352e-01,3.870698859546159443e-02,1.319526785621225828e+00,-7.721325682608003449e-01,3.999999999999994671e-01,1.203943243026736276e+00,1.000000000000000000e+00
1.032179348841435251e+00,1.072469302980068484e+00,9.461635817253444269e-01,2.189905265052087546e-02,1.322041806156176502e+00,-7.682745012169246435e-01,3.899999999999994582e-01,1.207342297077181881e+00,1.000000000000000000e+00
1.032201247894085849e+00,1.073791344786224622e+00,9.453953072241274569e-01,5.069261383183178149e-03,1.324475481384671749e+00,-7.643884110710600366e-01,3.799999999999994493e-01,1.210741351127627485e+00,1.000000000000000000e+00
1.032206317155468955e+00,1.075115820267609212e+00,9.446309188130563861e-01,-1.178219076259350365e-02,1.326828598000645121e+00,-7.604732024037541560e-01,3.699999999999994404e-01,1.214140405178073090e+00,1.000000000000000000e+00
1.032194534964706367e+00,1.076442648865609808e+00,9.438704456106525864e-01,-2.865510909259097808e-02,1.329101957348679530e+00,-7.565277931009348755e-01,3.599999999999994316e-01,1.217539459228518695e+00,1.000000000000000000e+00
1.032165879855613699e+00,1.077771750822958507e+00,9.431139178175516058e-01,-4.554929866458026083e-02,1.331296375226816320e+00,-7.525511145492482790e-01,3.499999999999994227e-01,1.220938513278964299e+00,1.000000000000000000e+00
1.032120330556949073e+00,1.079103047198185283e+00,9.423613667030024121e-01,-6.246456429057385684e-02,1.333412681686763301e+00,-7.485421118286206266e-01,3.399999999999994138e-01,1.224337567329409904e+00,1.000000000000000000e+00
1.032057865992658474e+00,1.080436459879872135e+00,9.416128245911737915e-01,-7.940071053908087650e-02,1.335451720831540845e+00,-7.444997439020096808e-01,3.299999999999994049e-01,1.227736621379855508e+00,1.000000000000000000e+00
1.031978465282119339e+00,1.081771911600703628e+00,9.408683248472717864e-01,-9.635754173736495176e-02,1.337414350610603542e+00,-7.404229838023117516e-01,3.199999999999993960e-01,1.231135675430301113e+00,1.000000000000000000e+00
1.031882107740381915e+00,1.083109325951314261e+00,9.401279018634695062e-01,-1.133348619737049728e-01,1.339301442612477411e+00,-7.363108188163907109e-01,3.099999999999993872e-01,1.234534729480746718e+00,1.000000000000000000e+00
1.031768772878408180e+00,1.084448627393926667e+00,9.393915910446530848e-01,-1.303324750996585624e-01,1.341113881854952172e+00,-7.321622506661960017e-01,2.999999999999993783e-01,1.237933783531192322e+00,1.000000000000000000e+00
1.031638440403308543e+00,1.085789741275781539e+00,9.386594287939868941e-01,-1.473501847323282488e-01,1.342852566572867445e+00,-7.279762956869364476e-01,2.899999999999993694e-01,1.241332837581637927e+00,1.000000000000000000e+00
1.031491090218576323e+00,1.087132593842354389e+00,9.379314524983000112e-01,-1.643877942566304151e-01,1.344518408003535059e+00,-7.237519850022796630e-01,2.799999999999993605e-01,1.244731891632083531e+00,1.000000000000000000e+00
1.031326702424319786e+00,1.088477112250357814e+00,9.372077005132977146e-01,-1.814451068275669821e-01,1.346112330169836779e+00,-7.194883646965434254e-01,2.699999999999993516e-01,1.248130945682529136e+00,1.000000000000000000e+00
1.031145257317492181e+00,1.089823224580527716e+00,9.364882121486011179e-01,-1.985219253724994914e-01,1.347635269661039636e+00,-7.151844959838500326e-01,2.599999999999993427e-01,1.251529999732974741e+00,1.000000000000000000e+00
1.030946735392119784e+00,1.091170859850188801e+00,9.357730276526172730e-01,-2.156180525934261460e-01,1.349088175411370383e+00,-7.108394553742123367e-01,2.499999999999993339e-01,1.254929053783420345e+00,1.000000000000000000e+00
1.030731117339526381e+00,1.092519948025600263e+00,9.350621881972430716e-01,-2.327332909692612639e-01,1.350472008476390595e+00,-7.064523348365222555e-01,2.399999999999993250e-01,1.258328107833865950e+00,1.000000000000000000e+00
1.030498384048557092e+00,1.093870420034076751e+00,9.343557358624065001e-01,-2.498674427581173141e-01,1.351787741807215504e+00,-7.020222419584121187e-01,2.299999999999993161e-01,1.261727161884311554e+00,1.000000000000000000e+00
1.030248516605799081e+00,1.095222207775883971e+00,9.336537136204481335e-01,-2.670203099995895890e-01,1.353036360022619178e+00,-6.975483001029608721e-01,2.199999999999993072e-01,1.265126215934757159e+00,1.000000000000000000e+00
1.029981496295799381e+00,1.096575244135906679e+00,9.329561653203451987e-01,-2.841916945170432918e-01,1.354218859179069590e+00,-6.930296485622167157e-01,2.099999999999992983e-01,1.268525269985202764e+00,1.000000000000000000e+00
1.029697304601282282e+00,1.097929462995085759e+00,9.322631356717829831e-01,-3.013813979199032600e-01,1.355336246538736633e+00,-6.884654427075088678e-01,1.999999999999992895e-01,1.271924324035648368e+00,1.000000000000000000e+00
1.029395923203362484e+00,1.099284799241624588e+00,9.315746702290754744e-01,-3.185892216059459936e-01,1.356389540335517063e+00,-6.838548541365219169e-01,1.899999999999992806e-01,1.275323378086093973e+00,1.000000000000000000e+00
1.029077333981756492e+00,1.100641188781960045e+00,9.308908153749390069e-01,-3.358149667635943469e-01,1.357379769539121650e+00,-6.791970708171062299e-01,1.799999999999992717e-01,1.278722432136539577e+00,1.000000000000000000e+00
1.028741519014992889e+00,1.101998568551499247e+00,9.302116183041219122e-01,-3.530584343742143028e-01,1.358307973617267628e+00,-6.744912972277989915e-01,1.699999999999992628e-01,1.282121486186985182e+00,1.000000000000000000e+00
1.028388460580618613e+00,1.103356876525116492e+00,9.295371270068940595e-01,-3.703194252144145215e-01,1.359175202296023288e+00,-6.697367544950306728e-01,1.599999999999992539e-01,1.285520540237430787e+00,1.000000000000000000e+00
1.028018141155404130e+00,1.104716051727412607e+00,9.288673902523990611e-01,-3.875977398583480560e-01,1.359982515318348240e+00,-6.649326805269930585e-01,1.499999999999992450e-01,1.288919594287876391e+00,1.000000000000000000e+00
1.027630543415545716e+00,1.106076034242730932e+00,9.282024575718720305e-01,-4.048931786800163968e-01,1.360730982200876404e+00,-6.600783301441440765e-01,1.399999999999992362e-01,1.292318648338321996e+00,1.000000000000000000e+00
